EC-Lab ASCII FILE
Nb header lines : 64                          

Potentio Electrochemical Impedance Spectroscopy

Run on channel : 1 (SN 5680)
User : dorhoff
Electrode connection : standard
Ewe ctrl range : min = -0.10 V, max = 0.10 V
Ewe,I filtering : 50 kHz
Safety Limits :
	Do not start on E overload
Channel : Floating
Acquisition started on : 05-08-2019 16:02:23
Saved on :
	File : 190508_002_100mM_K4FeCN6_100mM_K3FeCN6_50mLmin_PEIS_C01.mpr
	Directory : C:\Data\BioLogic\dorhoff\Flow_cell_5_cm2\Ex_11_FeCN6_FeCN6\
	Host : 10.41.26.176
Device : SP-300 (SN 0955)
Address : USB
EC-Lab for windows v11.20 (software)
Internet server v11.20 (firmware)
Command interpretor v11.20 (firmware)
Electrode material : 
Initial state : 
Electrolyte : 
Comments : 
Current amplifier : B-10A5V
Cable : standard
Electrode surface area : 0.001 cm²
Characteristic mass : 0.001 g
Equivalent Weight : 0.000 g/eq.
Density : 0.000 g/cm3
Record EIS quality indicators
Cycle Definition : Charge/Discharge alternance
Mode                Single sine         
E (V)               0.0000              
vs.                 Eoc                 
tE (h:m:s)          0:00:0.0000         
record              0                   
dI                  0.000               
unit dI             mA                  
dt (s)              0.000               
fi                  100.000             
unit fi             kHz                 
ff                  0.100               
unit ff             Hz                  
Nd                  12                  
Points              per decade          
spacing             Logarithmic         
Va (mV)             10.0                
pw                  0.10                
Na                  2                   
corr                0                   
E range min (V)     -0.100              
E range max (V)     0.100               
I Range             Auto                
Bandwidth           8                   
nc cycles           0                   
goto Ns'            0                   
nr cycles           0                   
inc. cycle          0                   

freq/Hz	Re(Z)/Ohm	-Im(Z)/Ohm	|Z|/Ohm	Phase(Z)/deg	time/s	<Ewe>/V	<I>/mA	Cs/µF	Cp/µF	cycle number	I Range	|Ewe|/V	|I|/A	THD Ewe/%	NSD Ewe/%	NSR Ewe/%	THD I/%	NSD I/%	NSR I/%	Re(Y)/Ohm-1	Im(Y)/Ohm-1	|Y|/Ohm-1	Phase(Y)/deg	
1.0000371E+005	2.0925719E-001	-8.8811301E-002	2.2732359E-001	2.2996960E+001	2.880471336800838E+000	-1.0171698E-004	-1.7455778E+001	-1.7919909E+001	-2.7351630E+000	1.000000000000000E+000	65	9.8239873E-003	4.3215871E-002	2.0417783E-001	1.6362368E-001	2.9393969E+000	5.5293554E-001	2.1722168E-001	7.5501337E+000	4.0494061E+000	-1.7186174E+000	4.3990154E+000	-2.2996960E+001
8.2318891E+004	2.1139352E-001	-7.2217733E-002	2.2338894E-001	1.8861551E+001	3.699485909048235E+000	-1.0222029E-004	-1.7387602E+001	-2.6771751E+001	-2.7979577E+000	1.000000000000000E+000	65	1.0412673E-002	4.6612304E-002	1.7306729E-001	6.3914113E-002	2.7311895E+000	3.5585642E-001	2.0571877E-001	6.9769516E+000	4.2361207E+000	-1.4471730E+000	4.4764972E+000	-1.8861551E+001
6.7760914E+004	2.1304943E-001	-5.8482148E-002	2.2093035E-001	1.5349634E+001	4.518469334609108E+000	-1.0328284E-004	-1.7169235E+001	-4.0162209E+001	-2.8141901E+000	1.000000000000000E+000	65	1.0509259E-002	4.7568198E-002	1.3928269E-001	8.7507516E-002	2.7087510E+000	3.2396191E-001	2.6972291E-001	6.9784236E+000	4.3648529E+000	-1.1981537E+000	4.5263133E+000	-1.5349634E+001
5.5782363E+004	2.1454550E-001	-4.7923617E-002	2.1983276E-001	1.2591610E+001	5.337480760150356E+000	-1.1072070E-004	-1.7212646E+001	-5.9535172E+001	-2.8293583E+000	1.000000000000000E+000	65	1.0501098E-002	4.7768574E-002	1.5344231E-001	6.4079039E-002	2.7145133E+000	4.1081625E-001	2.8865665E-001	6.9250121E+000	4.4395051E+000	-9.9166447E-001	4.5489125E+000	-1.2591610E+001
4.5919313E+004	2.1572004E-001	-3.8684487E-002	2.1916118E-001	1.0166635E+001	6.156483919039601E+000	-1.0043073E-004	-1.7050362E+001	-8.9595848E+001	-2.7914786E+000	1.000000000000000E+000	65	1.0485799E-002	4.7845148E-002	1.4291464E-001	6.0587823E-002	2.7612038E+000	3.4201688E-001	2.0791169E-001	6.9068022E+000	4.4912086E+000	-8.0539620E-001	4.5628519E+000	-1.0166635E+001
3.7800625E+004	2.1611054E-001	-3.1196579E-002	2.1835062E-001	8.2141743E+000	6.975469504628563E+000	-1.0065442E-004	-1.7186375E+001	-1.3496283E+002	-2.7549853E+000	1.000000000000000E+000	65	1.0449014E-002	4.7854289E-002	1.3485034E-001	8.7836415E-002	2.7418597E+000	2.9711369E-001	1.1193410E-001	6.8865447E+000	4.5328054E+000	-6.5433198E-001	4.5797901E+000	-8.2141743E+000
3.1110822E+004	2.1684051E-001	-2.4796188E-002	2.1825366E-001	6.5235615E+000	7.794484343525255E+000	-9.4819698E-005	-1.7173893E+001	-2.0631165E+002	-2.6629958E+000	1.000000000000000E+000	65	1.0414688E-002	4.7718275E-002	1.4146964E-001	9.4531536E-002	2.7213650E+000	2.8661501E-001	2.2296841E-001	6.8350296E+000	4.5521584E+000	-5.2054930E-001	4.5818248E+000	-6.5235615E+000
2.5608666E+004	2.1774882E-001	-2.0289971E-002	2.1869209E-001	5.3234844E+000	8.613492382428376E+000	-9.9927413E-005	-1.7249725E+001	-3.0630334E+002	-2.6366253E+000	1.000000000000000E+000	65	1.0363211E-002	4.7387224E-002	1.5295893E-001	8.5396618E-002	2.7786722E+000	5.1940089E-001	2.4338949E-001	6.8679571E+000	4.5529160E+000	-4.2424354E-001	4.5726390E+000	-5.3234844E+000
2.1080762E+004	2.1823885E-001	-1.5986530E-002	2.1882358E-001	4.1895738E+000	9.432488074671710E+000	-9.9181758E-005	-1.7132343E+001	-4.7225836E+002	-2.5205760E+000	1.000000000000000E+000	65	1.0308261E-002	4.7107633E-002	1.6055736E-001	1.0329750E-001	2.8069427E+000	3.5558054E-001	1.9194683E-001	6.9961300E+000	4.5576797E+000	-3.3386123E-001	4.5698915E+000	-4.1895738E+000
1.7360084E+004	2.1869379E-001	-1.2851033E-002	2.1907105E-001	3.3629863E+000	1.025147635352914E+001	-9.3924922E-005	-1.7204634E+001	-7.1339532E+002	-2.4549146E+000	1.000000000000000E+000	65	1.0252908E-002	4.6801750E-002	1.7940964E-001	6.3775077E-002	2.8341658E+000	3.3975822E-001	2.1735743E-001	6.9424238E+000	4.5568686E+000	-2.6777381E-001	4.5647292E+000	-3.3629863E+000
1.4288895E+004	2.1882664E-001	-9.9018179E-003	2.1905054E-001	2.5908439E+000	1.107047217912623E+001	-9.8566597E-005	-1.7115574E+001	-1.1248810E+003	-2.2985172E+000	1.000000000000000E+000	65	1.0166397E-002	4.6411194E-002	1.9466102E-001	8.7569594E-002	2.7865427E+000	4.0238237E-001	1.6432388E-001	7.1653266E+000	4.5604901E+000	-2.0636036E-001	4.5651565E+000	-2.5908439E+000
1.1755861E+004	2.1929355E-001	-7.7507952E-003	2.1943048E-001	2.0242414E+000	1.176149359860574E+001	-9.7876858E-005	-1.7116318E+001	-1.7467043E+003	-2.1793051E+000	1.000000000000000E+000	65	1.0965554E-002	4.9972795E-002	1.4709279E-001	1.4860085E-001	2.6530576E+000	4.1706017E-001	1.4415969E-001	6.6244483E+000	4.5544081E+000	-1.6097274E-001	4.5572519E+000	-2.0242414E+000
9.6774775E+003	2.1951893E-001	-6.2715951E-003	2.1960850E-001	1.6364794E+000	1.258048595752916E+001	-2.0487775E-004	-1.7458216E+001	-2.6222854E+003	-2.1386399E+000	1.000000000000000E+000	65	1.0298652E-002	4.6895504E-002	1.3920972E-001	7.2002970E-002	2.7796886E+000	4.2059964E-001	1.8417239E-001	7.1159563E+000	4.5517006E+000	-1.3004082E-001	4.5535579E+000	-1.6364794E+000
8.1459580E+003	2.1990371E-001	-4.4456306E-003	2.1994863E-001	1.1581486E+000	1.328866625786759E+001	-2.0392705E-004	-1.7403624E+001	-4.3948555E+003	-1.7954314E+000	1.000000000000000E+000	65	1.0749118E-002	4.8871040E-002	1.9038527E-001	7.2574757E-002	2.6658552E+000	3.1219012E-001	1.9716585E-001	6.7723870E+000	4.5455871E+000	-9.1894776E-002	4.5465159E+000	-1.1581486E+000
6.7010967E+003	2.2005600E-001	-3.5385229E-003	2.2008444E-001	9.2124259E-001	1.418569072714308E+001	-2.0950079E-004	-1.7472565E+001	-6.7120044E+003	-1.7350723E+000	1.000000000000000E+000	65	1.0105521E-002	4.5916565E-002	1.4069703E-001	1.0160366E-001	2.7877913E+000	4.0444148E-001	2.0424122E-001	7.1457310E+000	4.5431232E+000	-7.3053889E-002	4.5437107E+000	-9.2124259E-001
5.5188237E+003	2.2085588E-001	-2.2186150E-003	2.2086702E-001	5.7554728E-001	1.494848617663956E+001	-2.0452357E-004	-1.7543365E+001	-1.2998452E+004	-1.3115770E+000	1.000000000000000E+000	65	1.0327083E-002	4.6757016E-002	1.6147310E-001	7.1797512E-002	2.7831316E+000	4.1769624E-001	2.4532019E-001	7.1550879E+000	4.5273829E+000	-4.5479972E-002	4.5276113E+000	-5.7554728E-001
4.4464243E+003	2.2098388E-001	-1.1979963E-003	2.2098713E-001	3.1060845E-001	1.572366450685513E+001	-2.0409482E-004	-1.7558084E+001	-2.9878154E+004	-8.7807333E-001	1.000000000000000E+000	65	1.0482509E-002	4.7434930E-002	1.9520798E-001	1.0156307E-001	2.7419641E+000	3.6463952E-001	2.4495983E-001	7.0167174E+000	4.5250840E+000	-2.4531353E-002	4.5251503E+000	-3.1060845E-001
3.6588311E+003	2.2118075E-001	-3.7919268E-005	2.2118075E-001	9.8227989E-003	1.649481027681031E+001	-2.0534378E-004	-1.7548769E+001	-1.1471438E+006	-3.3716545E-002	1.000000000000000E+000	65	1.0590122E-002	4.7879945E-002	1.5373613E-001	1.3004008E-001	2.6942296E+000	4.5944902E-001	1.5623675E-001	6.9622812E+000	4.5211892E+000	-7.7511353E-004	4.5211892E+000	-9.8227989E-003
3.0128955E+003	2.2101578E-001	3.7507649E-004	2.2101609E-001	-9.7234137E-002	1.726553980671451E+001	-1.9930401E-004	-1.7637644E+001	1.4083683E+005	4.0560949E-001	1.000000000000000E+000	65	1.0644642E-002	4.8162293E-002	1.4335026E-001	1.8580696E-001	2.6720710E+000	3.7256593E-001	1.7809820E-001	6.8874311E+000	4.5245509E+000	7.6784231E-003	4.5245576E+000	9.7234137E-002
2.4792031E+003	2.2159636E-001	6.8549358E-004	2.2159742E-001	-1.7724012E-001	1.803682389672031E+001	-2.0226798E-004	-1.7553801E+001	9.3649320E+004	8.9615268E-001	1.000000000000000E+000	65	1.0685826E-002	4.8221797E-002	1.8260963E-001	1.2035029E-001	2.6835430E+000	3.7365660E-001	3.4054744E-001	6.9032359E+000	4.5126667E+000	1.3959634E-002	4.5126882E+000	1.7724012E-001
2.0406544E+003	2.2166371E-001	1.5616199E-003	2.2166921E-001	-4.0364185E-001	1.880770796000434E+001	-2.0150369E-004	-1.7556593E+001	4.9943082E+004	2.4786503E+000	1.000000000000000E+000	65	1.0711758E-002	4.8323166E-002	1.5679123E-001	1.0129806E-001	2.7286615E+000	4.3588045E-001	3.6390686E-001	6.8267751E+000	4.5111141E+000	3.1780779E-002	4.5112262E+000	4.0364185E-001
1.6805381E+003	2.2277871E-001	1.7031470E-003	2.2278522E-001	-4.3801868E-001	1.957867756995984E+001	-2.0059026E-004	-1.7551004E+001	5.5605746E+004	3.2497590E+000	1.000000000000000E+000	65	1.0735795E-002	4.8188992E-002	1.2560879E-001	7.5151734E-002	2.6601772E+000	3.7752265E-001	2.7084693E-001	6.9186044E+000	4.4884968E+000	3.4314632E-002	4.4886279E+000	4.3801868E-001
1.3827905E+003	2.2316001E-001	2.6959372E-003	2.2317630E-001	-6.9214147E-001	2.035006419324782E+001	-1.9783135E-004	-1.7561253E+001	4.2692734E+004	6.2298465E+000	1.000000000000000E+000	65	1.0745810E-002	4.8149426E-002	1.7184614E-001	1.3078128E-001	2.6434181E+000	3.5325328E-001	1.8590340E-001	6.9271183E+000	4.4804354E+000	5.4126956E-002	4.4807625E+000	6.9214147E-001
1.1381805E+003	2.2343451E-001	3.2140180E-003	2.2345762E-001	-8.2412052E-001	2.112108446986531E+001	-1.9794320E-004	-1.7417414E+001	4.3507152E+004	9.0005064E+000	1.000000000000000E+000	65	1.0757586E-002	4.8141506E-002	1.7083554E-001	6.5438658E-002	2.6354718E+000	4.1862813E-001	1.7298189E-001	6.9945111E+000	4.4746585E+000	6.4366214E-002	4.4751215E+000	8.2412052E-001
9.3709680E+002	2.2344947E-001	3.6893492E-003	2.2347993E-001	-9.4591826E-001	2.189128279974102E+001	-2.0342373E-004	-1.7305994E+001	4.6034766E+004	1.2546090E+001	1.000000000000000E+000	65	1.0764611E-002	4.8168134E-002	2.0453291E-001	7.8330606E-002	2.6636255E+000	3.5191357E-001	2.3973867E-001	6.9252124E+000	4.4740648E+000	7.3870786E-002	4.4746747E+000	9.4591826E-001
7.7123193E+002	2.2411035E-001	3.5788149E-003	2.2413893E-001	-9.1487771E-001	2.266241614302271E+001	-1.8951735E-004	-1.7377913E+001	5.7662824E+004	1.4700760E+001	1.000000000000000E+000	65	1.0763041E-002	4.8019506E-002	1.4182037E-001	7.6469988E-002	2.6793902E+000	3.6924663E-001	1.9790561E-001	6.9106374E+000	4.4609499E+000	7.1236849E-002	4.4615188E+000	9.1487771E-001
6.3520300E+002	2.2461495E-001	4.4260658E-003	2.2465855E-001	-1.1288744E+000	2.343369015306234E+001	-1.9697385E-004	-1.7409027E+001	5.6609555E+004	2.1972504E+001	1.000000000000000E+000	65	1.0761400E-002	4.7901135E-002	1.1813041E-001	3.2382123E-002	2.6118391E+000	3.7046191E-001	1.6779424E-001	6.9465098E+000	4.4503355E+000	8.7694421E-002	4.4511995E+000	1.1288744E+000
5.2282513E+002	2.2544624E-001	4.5106057E-003	2.2549136E-001	-1.1461898E+000	2.420656712303753E+001	-1.9941587E-004	-1.7463434E+001	6.7488352E+004	2.7004662E+001	1.000000000000000E+000	65	1.0770163E-002	4.7763083E-002	1.4525439E-001	5.4592796E-002	2.6293101E+000	3.8474551E-001	1.6367912E-001	6.9370270E+000	4.4338722E+000	8.8710502E-002	4.4347596E+000	1.1461898E+000
4.3041333E+002	2.2565319E-001	5.0510997E-003	2.2570971E-001	-1.2823147E+000	2.497755214633071E+001	-1.9710434E-004	-1.7465855E+001	7.3206305E+004	3.6662315E+001	1.000000000000000E+000	65	1.0763591E-002	4.7687765E-002	1.9326411E-001	9.6384197E-002	2.6235912E+000	4.3157241E-001	2.8382564E-001	6.9330101E+000	4.4293599E+000	9.9148348E-002	4.4304695E+000	1.2823147E+000
3.5420657E+002	2.2611491E-001	5.0955187E-003	2.2617231E-001	-1.2909467E+000	2.574922508964664E+001	-2.0469133E-004	-1.7495480E+001	8.8181016E+004	4.4758240E+001	1.000000000000000E+000	65	1.0763912E-002	4.7591645E-002	1.6463347E-001	5.9591744E-002	2.5996304E+000	4.8677483E-001	2.3502485E-001	6.9356155E+000	4.4202857E+000	9.9611506E-002	4.4214077E+000	1.2909467E+000
2.9158594E+002	2.2719246E-001	5.9491922E-003	2.2727033E-001	-1.4999870E+000	2.651765336621247E+001	-2.0485911E-004	-1.7526409E+001	9.1747781E+004	6.2867481E+001	1.000000000000000E+000	65	1.0769391E-002	4.7385816E-002	1.5370341E-001	9.0973206E-002	2.6720972E+000	3.4813079E-001	1.9687377E-001	7.0551615E+000	4.3985386E+000	1.1517879E-001	4.4000463E+000	1.4999870E+000
2.4007707E+002	2.2785434E-001	6.4741988E-003	2.2794630E-001	-1.6275507E+000	2.728866921616282E+001	-2.1775886E-004	-1.7496412E+001	1.0239610E+005	8.2601967E+001	1.000000000000000E+000	65	1.0767099E-002	4.7235247E-002	1.3416915E-001	8.2754977E-002	2.7109790E+000	4.0459111E-001	2.1439114E-001	7.0963812E+000	4.3852282E+000	1.2460084E-001	4.3869982E+000	1.6275507E+000
1.9753500E+002	2.2822401E-001	6.8382700E-003	2.2832644E-001	-1.7162384E+000	2.806427181293839E+001	-2.0989226E-004	-1.7486910E+001	1.1782292E+005	1.0568416E+002	1.000000000000000E+000	65	1.0769342E-002	4.7166426E-002	1.2108473E-001	7.5971834E-002	2.6462953E+000	4.7521472E-001	1.3881810E-001	7.0165544E+000	4.3777299E+000	1.3116980E-001	4.3796945E+000	1.7162384E+000
1.6265810E+002	2.2893882E-001	7.5278981E-003	2.2906254E-001	-1.8833042E+000	2.883962619650265E+001	-2.0429987E-004	-1.7494177E+001	1.2997825E+005	1.4038155E+002	1.000000000000000E+000	65	1.0763375E-002	4.6988804E-002	1.8650883E-001	7.1958721E-002	2.6899598E+000	3.4772804E-001	2.4503805E-001	7.0763397E+000	4.3632622E+000	1.4347148E-001	4.3656201E+000	1.8833042E+000
1.3392865E+002	2.3006435E-001	8.1155822E-003	2.3020744E-001	-2.0202866E+000	2.961237540646107E+001	-2.0333054E-004	-1.7476662E+001	1.4642895E+005	1.8198164E+002	1.000000000000000E+000	65	1.0765658E-002	4.6765029E-002	1.7250055E-001	9.5416941E-002	2.6404936E+000	3.5288438E-001	1.1725058E-001	7.0739179E+000	4.3412080E+000	1.5313730E-001	4.3439083E+000	2.0202866E+000
1.1024699E+002	2.3087035E-001	8.8763097E-003	2.3104092E-001	-2.2017758E+000	3.062931862814003E+001	-2.1693866E-004	-2.1766258E-002	1.6263759E+005	2.4005348E+002	1.000000000000000E+000	37	1.0768454E-002	4.6608426E-002	1.7243695E-001	9.3839034E-002	2.5060191E+000	1.2272575E-001	4.2846516E-002	5.1680422E-001	4.3250422E+000	1.6628560E-001	4.3282375E+000	2.2017758E+000
9.0725723E+001	2.3200805E-001	9.6309250E-003	2.3220786E-001	-2.3770499E+000	3.139713053128798E+001	-2.1069383E-004	3.6753695E-002	1.8214688E+005	3.1333136E+002	1.000000000000000E+000	37	1.0774814E-002	4.6401586E-002	1.2600236E-001	6.1870825E-002	2.4422984E+000	1.2038060E-001	4.3334920E-002	4.5283562E-001	4.3027806E+000	1.7861344E-001	4.3064861E+000	2.3770499E+000
7.4689087E+001	2.3315525E-001	1.0331500E-002	2.3338404E-001	-2.5372124E+000	3.216957918126718E+001	-2.1518637E-004	2.7323639E-002	2.0625267E+005	4.0418860E+002	1.000000000000000E+000	37	1.0773377E-002	4.6161585E-002	1.7812650E-001	8.7704800E-002	2.4698176E+000	1.1920571E-001	3.1637780E-002	4.4095621E-001	4.2805824E+000	1.8967979E-001	4.2847829E+000	2.5372124E+000
6.1475410E+001	2.3438072E-001	1.0989888E-002	2.3463823E-001	-2.6845782E+000	3.293092671080376E+001	-2.1149541E-004	9.2836116E-003	2.3557297E+005	5.1679041E+002	1.000000000000000E+000	37	1.0773788E-002	4.5916595E-002	1.2546876E-001	7.3560558E-002	2.5076866E+000	1.2314881E-001	4.5023989E-002	4.5866647E-001	4.2572026E+000	1.9961616E-001	4.2618799E+000	2.6845782E+000
5.0599129E+001	2.3560430E-001	1.1995491E-002	2.3590948E-001	-2.9146245E+000	3.369839904058608E+001	-2.0985496E-004	1.3719023E-002	2.6221594E+005	6.7796039E+002	1.000000000000000E+000	37	1.0771130E-002	4.5657896E-002	1.6236167E-001	5.4582711E-002	2.4526720E+000	1.2724307E-001	5.4525651E-002	4.5669472E-001	4.2334304E+000	2.1553969E-001	4.2389140E+000	2.9146245E+000
4.1666702E+001	2.3720816E-001	1.2742816E-002	2.3755018E-001	-3.0749724E+000	3.445574491657317E+001	-2.1928745E-004	3.7592281E-002	2.9975441E+005	8.6255273E+002	1.000000000000000E+000	37	1.0775710E-002	4.5361824E-002	1.4727676E-001	6.3690141E-002	2.4706967E+000	1.2030536E-001	6.1183807E-002	4.4283754E-001	4.2035756E+000	2.2581600E-001	4.2096367E+000	3.0749724E+000
3.4286827E+001	2.3868430E-001	1.3520008E-002	2.3906690E-001	-3.2419918E+000	3.523590287362458E+001	-2.1224105E-004	-6.5760412E-003	3.4333328E+005	1.0980723E+003	1.000000000000000E+000	37	1.0773572E-002	4.5065094E-002	1.7253299E-001	5.1864449E-002	2.4971809E+000	1.3381067E-001	9.9077076E-002	4.6917006E-001	4.1762352E+000	2.3655823E-001	4.1829295E+000	3.2419918E+000
2.8237925E+001	2.4018544E-001	1.4733228E-002	2.4063689E-001	-3.5101852E+000	3.602822816456319E+001	-2.0918388E-004	5.6769133E-002	3.8255109E+005	1.4340387E+003	1.000000000000000E+000	37	1.0768682E-002	4.4750754E-002	1.1789470E-001	3.4891110E-002	2.4474180E+000	1.3055450E-001	1.2654769E-001	4.8542464E-001	4.1478424E+000	2.5443304E-001	4.1556387E+000	3.5101852E+000
2.3237690E+001	2.4211973E-001	1.5404043E-002	2.4260925E-001	-3.6403422E+000	3.682294529565843E+001	-1.9937857E-004	4.7842260E-002	4.4462353E+005	1.7924506E+003	1.000000000000000E+000	37	1.0773411E-002	4.4406433E-002	2.1533374E-001	6.6321231E-002	2.4350324E+000	1.2679985E-001	1.0844778E-001	4.5978794E-001	4.1135373E+000	2.6170981E-001	4.1218543E+000	3.6403422E+000
1.9124821E+001	2.4392386E-001	1.6794140E-002	2.4450131E-001	-3.9385948E+000	3.760691354624578E+001	-2.0435579E-004	3.0808637E-002	4.9552434E+005	2.3378582E+003	1.000000000000000E+000	37	1.0770944E-002	4.4052705E-002	1.5338078E-001	9.2885919E-002	2.4761775E+000	1.2117848E-001	1.6127527E-001	4.7170797E-001	4.0802984E+000	2.8092825E-001	4.0899577E+000	3.9385948E+000
1.5750975E+001	2.4584028E-001	1.7599642E-002	2.4646945E-001	-4.0948043E+000	3.835821030187071E+001	-2.0976177E-004	6.3366391E-002	5.7412819E+005	2.9274558E+003	1.000000000000000E+000	37	1.0770254E-002	4.3698128E-002	1.5627946E-001	8.9175798E-002	2.4412143E+000	1.2442775E-001	2.3366997E-001	4.8694918E-001	4.0469403E+000	2.8971943E-001	4.0572977E+000	4.0948043E+000
1.2963191E+001	2.4816850E-001	1.8476123E-002	2.4885532E-001	-4.2578106E+000	3.919021671477822E+001	-2.0603351E-004	1.1864658E-002	6.6450363E+005	3.6629009E+003	1.000000000000000E+000	37	1.0772242E-002	4.3287169E-002	1.3363135E-001	3.8196545E-002	1.7878543E+000	1.2643449E-001	2.8004578E-001	4.0284058E-001	4.0073090E+000	2.9834378E-001	4.0183992E+000	4.2578106E+000
1.0672808E+001	2.5017157E-001	2.0409295E-002	2.5100270E-001	-4.6639295E+000	3.993211949666147E+001	-2.0592166E-004	-2.4709363E-002	7.3065681E+005	4.8307290E+003	1.000000000000000E+000	37	1.0766313E-002	4.2893220E-002	1.8200770E-001	5.4061521E-002	2.4081655E+000	1.3609533E-001	2.3626289E-001	4.6433774E-001	3.9708290E+000	3.2394496E-001	3.9840209E+000	4.6639295E+000
8.7879601E+000	2.5271031E-001	2.0633040E-002	2.5355121E-001	-4.6676755E+000	4.074533889527083E+001	-2.0513873E-004	-2.4854222E-003	8.7774594E+005	5.8125122E+003	1.000000000000000E+000	37	1.0768362E-002	4.2470168E-002	1.0216846E-001	4.0767286E-002	1.7491707E+000	1.4631377E-001	3.7083796E-001	3.4056756E-001	3.9308960E+000	3.2094592E-001	3.9439764E+000	4.6676755E+000
7.2271376E+000	2.5516143E-001	2.2593571E-002	2.5615978E-001	-5.0601254E+000	4.163352760413545E+001	-2.0173671E-004	3.4796730E-002	9.7469550E+005	7.5825767E+003	1.000000000000000E+000	37	1.0766799E-002	4.2031571E-002	1.4171986E-001	4.9122654E-002	1.7540823E+000	1.5556896E-001	5.0118595E-001	3.4884939E-001	3.8885989E+000	3.4432060E-001	3.9038134E+000	5.0601254E+000
5.9523807E+000	2.5794777E-001	2.3129137E-002	2.5898266E-001	-5.1237793E+000	4.263082015819964E+001	-2.0584058E-004	2.7442781E-002	1.1560325E+006	9.2203525E+003	1.000000000000000E+000	37	1.0767975E-002	4.1577976E-002	1.6219729E-001	3.8370777E-002	1.3985683E+000	1.4071208E-001	4.6044466E-001	3.0331862E-001	3.8458331E+000	3.4484035E-001	3.8612623E+000	5.1237793E+000
4.8996582E+000	2.6081607E-001	2.5035731E-002	2.6201490E-001	-5.4830222E+000	4.376805546553805E+001	-1.9776890E-004	9.9081136E-002	1.2974603E+006	1.1845753E+004	1.000000000000000E+000	37	1.0768073E-002	4.1097179E-002	1.4190291E-001	3.8269952E-002	1.3957032E+000	1.7763278E-001	6.3597685E-001	3.0454126E-001	3.7991145E+000	3.6467695E-001	3.8165770E+000	5.4830222E+000
4.0312185E+000	2.6426065E-001	2.6948906E-002	2.6563120E-001	-5.8228087E+000	4.507911190114100E+001	-1.9989588E-004	-1.3652790E-001	1.4650169E+006	1.5078800E+004	1.000000000000000E+000	37	1.0766962E-002	4.0533498E-002	1.2283418E-001	3.7312303E-002	1.2137840E+000	4.1237515E-001	5.1875848E-001	3.4255666E-001	3.7451940E+000	3.8192928E-001	3.7646179E+000	5.8228087E+000
3.3209324E+000	2.6692513E-001	2.8013129E-002	2.6839104E-001	-5.9911189E+000	4.660227424014010E+001	-2.0989939E-004	3.0781022E-001	1.7107970E+006	1.8637416E+004	1.000000000000000E+000	37	1.0768604E-002	4.0122818E-002	1.1713586E-001	3.6345311E-002	1.0990037E+000	4.9913892E-001	1.5305030E-001	3.1395182E-001	3.7055562E+000	3.8888896E-001	3.7259068E+000	5.9911189E+000
2.7325974E+000	2.7018860E-001	2.9632695E-002	2.7180871E-001	-6.2588491E+000	4.838694147160277E+001	-2.0379003E-004	3.2262793E-001	1.9655013E+006	2.3360861E+004	1.000000000000000E+000	37	1.0765543E-002	3.9607055E-002	9.5068820E-002	3.7397191E-002	1.0327430E+000	5.4119527E-001	3.9608052E-001	3.8381106E-001	3.6571288E+000	4.0109235E-001	3.6790578E+000	6.2588491E+000
2.2501423E+000	2.7453792E-001	3.1151675E-002	2.7629966E-001	-6.4736338E+000	5.048908149142517E+001	-2.1099442E-004	-1.5701170E-001	2.2705378E+006	2.8862293E+004	1.000000000000000E+000	37	1.0766745E-002	3.8967635E-002	1.0402532E-001	4.1952342E-002	9.7169185E-001	4.3772617E-001	1.1719563E+000	4.8068872E-001	3.5961819E+000	4.0805689E-001	3.6192589E+000	6.4736338E+000
1.8513054E+000	2.7747014E-001	3.2073028E-002	2.7931768E-001	-6.5936089E+000	5.298165043651898E+001	-1.9771734E-004	-3.8544156E-002	2.6804155E+006	3.5341520E+004	1.000000000000000E+000	37	1.0764100E-002	3.8537122E-002	9.4344676E-002	5.9643280E-002	7.6269156E-001	3.7580779E-001	1.3244070E+000	5.6270361E-001	3.5564723E+000	4.1109589E-001	3.5801530E+000	6.5936089E+000
1.5246868E+000	2.8635964E-001	3.2086775E-002	2.8815171E-001	-6.3933597E+000	5.594607580394950E+001	-2.0432907E-004	5.8057327E-002	3.2532198E+006	4.0338813E+004	1.000000000000000E+000	37	1.0766433E-002	3.7363764E-002	1.1634643E-001	4.8904270E-002	7.0470691E-001	6.1056012E-001	1.3848960E-001	2.5427717E-001	3.4488111E+000	3.8644144E-001	3.4703941E+000	6.3933597E+000
1.2554228E+000	2.8628349E-001	3.4676321E-002	2.8837594E-001	-6.9063540E+000	6.112487370328745E+001	-1.9191510E-004	7.8499854E-002	3.6559233E+006	5.2862180E+004	1.000000000000000E+000	38	1.0758638E-002	3.7307683E-002	1.0007904E-001	3.4697555E-002	6.3011062E-001	3.3735874E-001	1.4291342E+000	6.8180329E-001	3.4425342E+000	4.1697976E-001	3.4676957E+000	6.9063540E+000
1.0327176E+000	2.9143763E-001	3.6788981E-002	2.9375044E-001	-7.1945524E+000	6.536766681148583E+001	-1.8956637E-004	4.4906449E-002	4.1891005E+006	6.5705125E+004	1.000000000000000E+000	38	1.0760599E-002	3.6631770E-002	1.0343853E-001	3.3875994E-002	5.7946086E-001	1.6902200E+000	2.0073599E-001	3.7832674E-001	3.3774474E+000	4.2634460E-001	3.4042504E+000	7.1945524E+000
8.5034221E-001	2.9651868E-001	3.8388152E-002	2.9899329E-001	-7.3766446E+000	7.045097145289765E+001	-2.0521386E-004	4.6885451E-003	4.8756125E+006	8.0371242E+004	1.000000000000000E+000	38	1.0762197E-002	3.5994779E-002	1.0639123E-001	3.2178689E-002	5.2265823E-001	4.7201625E-001	2.3641926E-001	1.5938438E+000	3.3168757E+000	4.2941216E-001	3.3445566E+000	7.3766446E+000
6.9960582E-001	3.0173689E-001	3.9865654E-002	3.0435905E-001	-7.5263605E+000	7.656249800985097E+001	-2.0291508E-004	2.5738873E-002	5.7064740E+006	9.7902367E+004	1.000000000000000E+000	38	1.0761772E-002	3.5358805E-002	9.9688448E-002	3.4054317E-002	4.7508639E-001	7.3102033E-001	2.3436609E-001	1.5054468E+000	3.2572868E+000	4.3035460E-001	3.2855930E+000	7.5263605E+000
5.7648349E-001	3.0848411E-001	4.1442871E-002	3.1125546E-001	-7.6515102E+000	8.392602891960996E+001	-1.9639829E-004	5.3589076E-002	6.6616750E+006	1.1809980E+005	1.000000000000000E+000	38	1.0761982E-002	3.4576043E-002	1.0115901E-001	3.9899487E-002	4.1977060E-001	1.0753438E+000	1.4432685E-001	1.3191612E+000	3.1841891E+000	4.2777550E-001	3.2127950E+000	7.6515102E+000
4.7413111E-001	3.1529197E-001	4.2070523E-002	3.1808639E-001	-7.6002846E+000	9.282556990228477E+001	-1.9474041E-004	4.0083192E-002	7.9789135E+006	1.3957558E+005	1.000000000000000E+000	38	1.0761913E-002	3.3833303E-002	1.0675958E-001	4.1155998E-002	3.8650799E-001	4.2513087E-001	1.3727735E-001	1.7426701E+000	3.1161814E+000	4.1580313E-001	3.1438000E+000	7.6002846E+000
3.9065406E-001	3.2265189E-001	4.1491620E-002	3.2530877E-001	-7.3277702E+000	1.035741293728061E+002	-1.9086315E-004	4.2540416E-002	9.8190030E+006	1.5973373E+005	1.000000000000000E+000	38	1.0759274E-002	3.3074036E-002	9.4184704E-002	8.8299453E-002	3.5282496E-001	1.2255727E+000	1.1573476E-001	1.3111047E+000	3.0488963E+000	3.9207470E-001	3.0740025E+000	7.3277702E+000
3.2136291E-001	3.2975015E-001	3.9809786E-002	3.3214453E-001	-6.8838391E+000	1.165872474575590E+002	-1.7989715E-004	6.2689975E-002	1.2440406E+007	1.7871459E+005	1.000000000000000E+000	38	1.0759915E-002	3.2395281E-002	9.2633627E-002	5.0173819E-002	3.2077208E-001	1.4670810E-001	8.3563633E-002	1.9005797E+000	2.9890337E+000	3.6085740E-001	3.0107374E+000	6.8838391E+000
2.6447177E-001	3.3613217E-001	3.6869556E-002	3.3814818E-001	-6.2596169E+000	1.323468195661553E+002	-1.8423036E-004	5.1620685E-002	1.6321983E+007	1.9404150E+005	1.000000000000000E+000	38	1.0762927E-002	3.1829026E-002	9.7619422E-002	4.6622951E-002	2.9443395E-001	1.3247381E-001	5.3346254E-002	1.7819763E+000	2.9396524E+000	3.2244363E-001	2.9572835E+000	6.2596169E+000
2.1780059E-001	3.4122866E-001	3.3680256E-002	3.4288681E-001	-5.6370006E+000	1.514307609792595E+002	-2.0077438E-004	-1.3625964E-002	2.1696302E+007	2.0933167E+005	1.000000000000000E+000	38	1.0758076E-002	3.1375006E-002	9.8176807E-002	3.7773386E-002	2.7004793E-001	1.3522622E-001	5.5029400E-002	1.8106747E+000	2.9023111E+000	2.8646648E-001	2.9164143E+000	5.6370006E+000
1.7931312E-001	3.4579012E-001	3.0251360E-002	3.4711087E-001	-4.9997768E+000	1.745585811444034E+002	-1.9263248E-004	2.7553258E-002	2.9340206E+007	2.2285200E+005	1.000000000000000E+000	38	1.0759002E-002	3.0995864E-002	1.0134396E-001	4.7257569E-002	2.5121632E-001	1.3265616E-001	6.0835853E-002	1.9346652E+000	2.8699622E+000	2.5107789E-001	2.8809240E+000	4.9997768E+000
1.4757961E-001	3.4959865E-001	2.6400752E-002	3.5059407E-001	-4.3186264E+000	2.026067893566506E+002	-1.9341618E-004	2.8060274E-002	4.0848628E+007	2.3163327E+005	1.000000000000000E+000	38	1.0761720E-002	3.0695671E-002	1.0516075E-001	6.0154177E-002	2.2647662E-001	1.3481389E-001	6.2025052E-002	1.8331046E+000	2.8442030E+000	2.1478657E-001	2.8523016E+000	4.3186264E+000
1.2150854E-001	3.5210118E-001	2.2502646E-002	3.5281950E-001	-3.6567774E+000	2.366208947322157E+002	-1.7598273E-004	4.8109312E-002	5.8207612E+007	2.3677823E+005	1.000000000000000E+000	38	1.0757438E-002	3.0489918E-002	9.8315626E-002	5.0746340E-002	2.1352795E-001	1.2970360E-001	6.0375836E-002	1.9236108E+000	2.8285398E+000	1.8077087E-001	2.8343105E+000	3.6567774E+000
9.9951774E-002	3.5383934E-001	1.9071832E-002	3.5435295E-001	-3.0852396E+000	2.779183721870359E+002	-1.9698089E-004	2.3929033E-002	8.3490528E+007	2.4185214E+005	1.000000000000000E+000	38	1.0759330E-002	3.0363316E-002	9.7154945E-002	6.1408971E-002	2.0076808E-001	1.2583095E-001	4.7150571E-002	1.8587214E+000	2.8179548E+000	1.5188690E-001	2.8220451E+000	3.0852396E+000